# $1 = time (seconds since 01-JAN-2000, 00:00 UTC)
# $2 = solar zenith angle [deg]
# $3 = longitude [deg]
# $4 = latitude [deg]
# $5 = 8mu brightness temperature [K]
# $6 = 4mu brightness temperature [K]
# $7 = 4mu brightness temperature perturbation [K]
# $8 = 4mu brightness temperature variance [K^2]
# $9 = along-track index
# $10 = across-track index

95704531.36 149.218 144.56 13.9501 295.583 239.941 -0.12243 -0.0026166 0 0
95704531.38 149.571 144.198 14.0141 290.709 239.785 -0.0534425 0.00119222 0 1
95704531.40 149.907 143.853 14.0746 295.375 239.627 0.00270967 0.00215208 0 2
95704531.43 150.213 143.538 14.1291 295.348 239.157 -0.264884 0.00494012 0 3
95704531.45 150.512 143.231 14.1818 296.106 239.484 0.254518 0.0050042 0 4
95704531.47 150.79 142.945 14.2305 296.298 239.074 0.0266514 0.00508878 0 5
95704531.49 151.054 142.673 14.2764 296.065 239.173 0.297961 0.00474031 0 6
95704531.52 151.305 142.414 14.3197 296.23 238.7 -0.0123483 0.00231635 0 7
95704531.54 151.542 142.17 14.3602 295.776 238.665 0.106652 0.000351701 0 8
95704531.56 151.775 141.929 14.3998 292.578 238.389 -0.0240252 0.000376428 0 9
95704531.58 151.996 141.702 14.437 290.413 238.305 0.0285924 -0.00296941 0 10
95704531.61 152.208 141.483 14.4724 291.034 237.928 -0.219437 -0.00113443 0 11
95704531.63 152.411 141.272 14.5063 292.966 237.928 -0.0979764 -0.00215998 0 12
95704531.65 152.608 141.068 14.5388 290.205 238.002 0.0901462 -0.000384519 0 13
95704531.67 152.798 140.872 14.57 292.014 237.681 -0.123307 8.69294e-05 0 14
95704531.70 152.985 140.678 14.6004 291.533 237.83 0.125973 0.00302518 0 15
95704531.72 153.16 140.497 14.6288 291.225 237.551 -0.058842 0.00267485 0 16
95704531.74 153.333 140.317 14.6567 291.181 237.53 0.00850023 0.000219131 0 17
95704531.76 153.501 140.143 14.6836 290.916 237.494 0.0549106 0.0018396 0 18
95704531.79 153.665 139.973 14.7096 295.32 237.222 -0.141055 0.00191678 0 19
95704531.81 153.825 139.807 14.7349 296.558 237.637 0.34552 0.000973228 0 20
95704531.83 153.981 139.645 14.7594 296.517 237.344 0.118841 0.00291278 0 21
95704531.85 154.133 139.487 14.7832 294.061 237.228 0.064713 0.00301001 0 22
95704531.87 154.279 139.334 14.8059 292.722 237.288 0.181455 0.00358079 0 23
95704531.90 154.428 139.18 14.8289 293.095 236.956 -0.0973451 0.00731601 0 24
95704531.92 154.571 139.031 14.8509 292.347 236.931 -0.0737869 0.00761809 0 25
95704531.94 154.711 138.885 14.8724 295.139 237.134 0.173878 0.00549598 0 26
95704531.96 154.849 138.741 14.8934 290.175 236.781 -0.138289 0.00537989 0 27
95704531.99 154.985 138.6 14.9139 291.357 236.8 -0.0810728 0.0045003 0 28
95704532.01 155.118 138.46 14.9341 294.272 236.897 0.0501975 0.00324215 0 29
95704532.03 155.25 138.323 14.9538 292.635 236.457 -0.359587 0.0048026 0 30
95704532.05 155.38 138.187 14.9732 291.897 236.635 -0.153415 0.00441034 0 31
95704532.08 155.509 138.053 14.9923 296.517 236.558 -0.204469 0.00482835 0 32
95704532.10 155.636 137.92 15.0111 296.98 236.575 -0.165479 0.0047118 0 33
95704532.12 155.761 137.789 15.0296 295.638 236.757 0.0361828 0.00384258 0 34
95704532.14 155.886 137.659 15.0478 294.819 236.869 0.165698 0.00170136 0 35
95704532.17 156.007 137.532 15.0655 296.394 236.426 -0.261408 0.00192648 0 36
95704532.19 156.132 137.402 15.0836 296.421 236.613 -0.0622552 0.000626533 0 37
95704532.21 156.252 137.276 15.1009 295.997 236.734 0.0704885 0.000538796 0 38
95704532.23 156.374 137.148 15.1186 293.537 236.583 -0.0720974 0.00179811 0 39
95704532.26 156.495 137.022 15.1358 294.089 236.754 0.105597 0.00113753 0 40
95704532.28 156.616 136.894 15.1532 292.578 236.509 -0.134741 0.00230884 0 41
95704532.30 156.734 136.771 15.1699 293.707 236.67 0.0297861 0.00174118 0 42
95704532.32 156.855 136.644 15.187 292.822 236.858 0.219058 0.000823981 0 43
95704532.35 156.972 136.521 15.2035 294.805 236.697 0.0578498 0.00215458 0 44
95704532.37 157.091 136.397 15.2202 296.285 236.769 0.128075 0.00258088 0 45
95704532.39 157.21 136.272 15.2369 296.476 236.618 -0.0272814 0.00093086 0 46
95704532.41 157.329 136.147 15.2535 296.667 236.842 0.191632 0.00149514 0 47
95704532.44 157.448 136.022 15.27 294.749 236.605 -0.0527258 0.00106294 0 48
95704532.46 157.567 135.896 15.2865 293.394 236.793 0.127176 0.00185154 0 49
95704532.48 157.687 135.77 15.3031 297.115 236.803 0.12693 0.00104483 0 50
95704532.50 157.808 135.643 15.3196 297.156 236.686 -0.00273381 0.000699718 0 51
95704532.52 157.929 135.515 15.3362 297.856 236.755 0.0527077 0.000178457 0 52
95704532.55 158.053 135.385 15.3531 297.291 236.588 -0.129715 -0.000656138 0 53
95704532.57 158.176 135.256 15.3698 297.075 236.862 0.126762 -0.000756383 0 54
95704532.59 158.299 135.125 15.3865 292.88 236.65 -0.103757 -0.00229496 0 55
95704532.61 158.422 134.996 15.4031 294.679 236.816 0.0412843 -0.00155056 0 56
95704532.64 158.549 134.863 15.4201 293.551 236.953 0.155073 -0.00183095 0 57
95704532.66 158.676 134.728 15.4371 293.309 236.699 -0.123449 -0.00176657 0 58
95704532.68 158.805 134.592 15.4544 295.028 236.828 -0.0219059 -0.00128959 0 59
95704532.70 158.936 134.454 15.4717 295.167 236.945 0.0655377 -0.00190588 0 60
95704532.73 159.068 134.314 15.4893 291.868 236.94 0.0283194 -0.00152165 0 61
95704532.75 159.203 134.172 15.507 290.487 236.801 -0.144428 -0.00191721 0 62
95704532.77 159.339 134.028 15.525 292.765 236.857 -0.125517 -0.00155807 0 63
95704532.79 159.478 133.881 15.5432 294.525 237.185 0.16294 -0.000592842 0 64
95704532.82 159.619 133.732 15.5617 295.014 237.243 0.177797 -0.000984569 0 65
95704532.84 159.764 133.579 15.5804 295.514 237.027 -0.083476 0.000776982 0 66
95704532.86 159.91 133.424 15.5994 291.956 237.029 -0.130376 0.000276581 0 67
95704532.88 160.063 133.262 15.6191 288.424 237.099 -0.112564 2.24234e-05 0 68
95704532.91 160.214 133.102 15.6385 290.68 237.171 -0.0960467 -0.000111192 0 69
95704532.93 160.371 132.935 15.6587 291.387 237.362 0.0344947 0.000477627 0 70
95704532.95 160.532 132.764 15.6792 293.352 237.407 0.0160005 0.00183734 0 71
95704532.97 160.698 132.589 15.7002 294.497 237.615 0.15622 0.000787255 0 72
95704533.00 160.868 132.408 15.7217 294.721 237.507 -0.0236102 -0.000870831 0 73
95704533.02 161.043 132.222 15.7437 292.144 237.458 -0.14952 -0.000416222 0 74
95704533.04 161.223 132.031 15.7662 290.576 237.562 -0.127438 0.000369399 0 75
95704533.06 161.409 131.833 15.7894 286.424 237.729 -0.0474863 0.000251745 0 76
95704533.09 161.601 131.628 15.8132 285.712 237.892 0.0233762 0.000242442 0 77
95704533.11 161.801 131.415 15.8378 291.97 238.056 0.0898229 0.000892179 0 78
95704533.13 162.007 131.194 15.8631 289.561 238.172 0.102264 0.000130477 0 79
95704533.15 162.222 130.965 15.8892 289.666 238.031 -0.149242 -0.00170436 0 80
95704533.17 162.446 130.726 15.9163 290.99 238.416 0.119461 -0.00184058 0 81
95704533.20 162.683 130.472 15.9448 289.906 238.442 0.0227171 -0.00188961 0 82
95704533.22 162.924 130.214 15.9734 289.35 238.715 0.164807 -0.00138588 0 83
95704533.24 163.18 129.939 16.0037 287.486 238.593 -0.0944669 -0.00224844 0 84
95704533.26 163.449 129.65 16.0352 291.474 238.699 -0.134221 -0.00188317 0 85
95704533.29 163.733 129.345 16.0682 290.383 238.961 -0.0259066 -0.000723244 0 86
95704533.31 164.038 129.016 16.1032 291.372 239.192 0.0431507 -0.00282466 0 87
95704533.33 164.351 128.678 16.1389 293.551 239.334 0.0141518 -0.00111974 0 88
95704533.35 164.689 128.312 16.1769 293.707 239.54 0.0409821 -0.002827 0 89

95704534.03 149.194 144.519 13.7915 296.052 239.787 -0.221404 -0.0034207 1 0
95704534.05 149.552 144.151 13.8564 291.635 239.729 -0.0615444 -0.000329559 1 1
95704534.07 149.877 143.817 13.9147 295.264 239.554 -0.0276395 0.000621746 1 2
95704534.09 150.193 143.492 13.9709 295.666 239.437 0.0529247 0.0035409 1 3
95704534.12 150.487 143.191 14.0226 296.038 239.24 0.0443625 0.0033376 1 4
95704534.14 150.765 142.905 14.0712 296.544 238.999 -0.0179996 0.0040937 1 5
95704534.16 151.028 142.633 14.1169 296.01 239.06 0.212723 0.00291172 1 6
95704534.18 151.28 142.374 14.1602 296.079 238.763 0.0759628 0.000441776 1 7
95704534.21 151.52 142.126 14.2012 294.931 238.608 0.0737628 -0.000160996 1 8
95704534.23 151.749 141.889 14.2401 293.863 238.397 0.00738255 -0.000593414 1 9
95704534.25 151.969 141.662 14.2772 293.466 238.33 0.0763767 -0.00038372 1 10
95704534.27 152.181 141.443 14.3125 294.958 238.112 -0.0121788 -0.000361282 1 11
95704534.30 152.385 141.233 14.3463 291.708 237.937 -0.0657153 -0.00126943 1 12
95704534.32 152.584 141.026 14.3793 292.434 237.884 -0.00397016 -0.000771467 1 13
95704534.34 152.771 140.833 14.4098 294.525 237.62 -0.160158 -0.000944989 1 14
95704534.36 152.954 140.642 14.4397 294.595 237.71 0.0311747 0.00209299 1 15
95704534.38 153.132 140.458 14.4686 293.052 237.568 -0.0148887 0.001102 1 16
95704534.41 153.305 140.279 14.4964 293.423 237.552 0.0586671 0.00137194 1 17
95704534.43 153.473 140.104 14.5232 292.951 237.55 0.140517 0.00139663 1 18
95704534.45 153.637 139.934 14.5492 295.042 237.383 0.0517698 0.000661495 1 19
95704534.47 153.796 139.769 14.5744 295.79 237.375 0.117082 0.000265438 1 20
95704534.50 153.952 139.607 14.5988 295.983 237.124 -0.065709 0.00193931 1 21
95704534.52 154.104 139.449 14.6226 293.877 237.242 0.115746 0.00277783 1 22
95704534.54 154.25 139.297 14.6453 294.833 237.211 0.143937 0.00334366 1 23
95704534.56 154.398 139.143 14.6682 294.567 237.118 0.105477 0.00662172 1 24
95704534.59 154.541 138.994 14.6902 293.409 236.912 -0.0498557 0.00578884 1 25
95704534.61 154.681 138.848 14.7116 290.175 236.846 -0.0686112 0.00348176 1 26
95704534.63 154.821 138.702 14.733 289.876 236.558 -0.314193 0.00367993 1 27
95704534.65 154.957 138.56 14.7535 293.835 236.708 -0.124679 0.00357009 1 28
95704534.68 155.09 138.421 14.7736 295.735 236.792 -0.00515196 0.00488332 1 29
95704534.70 155.22 138.286 14.793 290.368 236.733 -0.0307444 0.00466457 1 30
95704534.72 155.352 138.148 14.8127 292.808 236.577 -0.157625 0.00360516 1 31
95704534.74 155.478 138.016 14.8314 295.597 236.593 -0.115017 0.00312638 1 32
95704534.77 155.605 137.884 14.8502 295.32 236.721 0.0366179 0.00341915 1 33
95704534.79 155.731 137.752 14.8687 293.891 236.644 -0.0202228 0.0038604 1 34
95704534.81 155.855 137.622 14.8869 292.376 236.576 -0.070378 0.00296467 1 35
95704534.83 155.976 137.495 14.9045 294.103 236.416 -0.21384 0.00119021 1 36
95704534.86 156.101 137.365 14.9226 292.549 236.678 0.0606506 0.000613287 1 37
95704534.88 156.222 137.238 14.9402 292.765 236.412 -0.193784 0.000763423 1 38
95704534.90 156.343 137.111 14.9576 295.251 236.671 0.0732381 0.000427737 1 39
95704534.92 156.463 136.986 14.9748 290.294 236.715 0.124116 0.000320806 1 40
95704534.95 156.584 136.858 14.9922 290.857 236.481 -0.105929 0.00151025 1 41
95704534.97 156.702 136.735 15.0088 293.579 236.491 -0.0939045 0.0011983 1 42
95704534.99 156.821 136.61 15.0257 295.112 236.673 0.0892127 0.000965686 1 43
95704535.01 156.94 136.485 15.0424 297.007 236.726 0.14024 0.000973802 1 44
95704535.03 157.058 136.361 15.0591 296.052 236.699 0.109421 0.00181713 1 45
95704535.06 157.177 136.236 15.0757 295.666 236.763 0.168512 0.000380412 1 46
95704535.08 157.296 136.111 15.0923 295.845 236.488 -0.113998 0.000930008 1 47
95704535.10 157.415 135.986 15.1089 295.625 236.558 -0.0528588 0.000792344 1 48
95704535.12 157.534 135.861 15.1254 296.599 236.593 -0.0287441 0.00148523 1 49
95704535.15 157.654 135.734 15.1419 294.202 236.721 0.0862771 0.00110158 1 50
95704535.17 157.774 135.608 15.1585 297.21 236.764 0.114702 0.000367936 1 51
95704535.19 157.895 135.48 15.175 297.02 236.659 -0.00679849 9.69138e-05 1 52
95704535.21 158.017 135.352 15.1916 296.449 236.892 0.208365 0.000590736 1 53
95704535.24 158.14 135.223 15.2083 296.175 236.668 -0.036007 -0.00103251 1 54
95704535.26 158.263 135.093 15.2251 295.362 236.583 -0.142866 -0.00155715 1 55
95704535.28 158.39 134.959 15.2422 295.306 236.905 0.155157 -0.00133882 1 56
95704535.30 158.514 134.828 15.2589 292.304 236.736 -0.0399233 0.000384851 1 57
95704535.33 158.641 134.694 15.2759 292.361 236.79 -0.013119 -0.00109949 1 58
95704535.35 158.77 134.558 15.2932 294.23 236.833 -0.000341097 -0.000797361 1 59
95704535.37 158.901 134.42 15.3105 295.306 237.032 0.165734 -0.0011177 1 60
95704535.39 159.033 134.28 15.3281 291.504 237.022 0.121378 -0.00105805 1 61
95704535.42 159.167 134.138 15.3458 289.666 237.098 0.159966 -0.00199522 1 62
95704535.44 159.303 133.994 15.3638 291.737 237.088 0.110762 -0.000593549 1 63
95704535.46 159.442 133.847 15.382 294.441 236.964 -0.0556233 -0.00103277 1 64
95704535.48 159.583 133.698 15.4005 295.209 237.028 -0.0369956 -0.000886745 1 65
95704535.51 159.727 133.545 15.4192 294.511 237.13 0.0176009 -0.000240938 1 66
95704535.53 159.876 133.388 15.4386 295.084 237.122 -0.0414564 0.000429866 1 67
95704535.55 160.024 133.231 15.4576 295.873 237.334 0.117073 0.00141905 1 68
95704535.57 160.177 133.069 15.4774 296.202 237.064 -0.210608 0.000498575 1 69
95704535.59 160.336 132.899 15.4978 294.483 237.362 0.0271163 0.00212307 1 70
95704535.62 160.494 132.731 15.5181 291.284 237.25 -0.148982 0.00215879 1 71
95704535.64 160.659 132.556 15.5391 292.75 237.349 -0.117092 0.00104719 1 72
95704535.66 160.829 132.375 15.5605 293.237 237.334 -0.204304 -0.000143096 1 73
95704535.68 161.004 132.19 15.5825 293.721 237.715 0.100773 -0.000441229 1 74
95704535.71 161.183 131.998 15.6051 293.352 237.596 -0.0984488 -0.00015099 1 75
95704535.73 161.366 131.803 15.6279 292.144 237.61 -0.16865 1.55298e-05 1 76
95704535.75 161.558 131.599 15.6518 287.532 237.813 -0.0548872 0.000827037 1 77
95704535.77 161.76 131.383 15.6767 288.47 237.749 -0.212538 -0.000609533 1 78
95704535.80 161.966 131.163 15.7021 290.517 238.161 0.0997101 -0.000791828 1 79
95704535.82 162.181 130.933 15.7283 289.996 238.219 0.0531857 -0.00263355 1 80
95704535.84 162.408 130.69 15.7558 289.23 238.325 0.0493123 -0.0016567 1 81
95704535.86 162.641 130.44 15.7839 290.235 238.494 0.1024 -0.00234879 1 82
95704535.89 162.881 130.183 15.8126 289.501 238.616 0.102919 -0.000942155 1 83
95704535.91 163.136 129.908 15.8429 287.579 238.682 0.0400171 -0.0026549 1 84
95704535.93 163.405 129.62 15.8745 289.35 238.723 -0.053787 -0.00166515 1 85
95704535.95 163.688 129.315 15.9075 288.805 239.099 0.180416 -0.00181254 1 86
95704535.98 163.987 128.992 15.9421 291.854 239.125 0.0579016 -0.00249265 1 87
95704536.00 164.304 128.649 15.9784 293.352 239.231 0.00716503 -0.00227388 1 88
95704536.02 164.641 128.283 16.0165 293.65 239.253 -0.134632 -0.00380205 1 89

95704536.69 149.169 144.478 13.6328 295.597 240.073 0.100899 -0.0037515 2 0
95704536.72 149.527 144.11 13.6976 291.912 239.668 -0.090193 -0.000723384 2 1
95704536.74 149.857 143.771 13.7567 295.652 239.602 0.04772 -8.41286e-05 2 2
95704536.76 150.163 143.457 13.8109 295.721 239.477 0.1171 0.000314793 2 3
95704536.78 150.461 143.15 13.8634 295.928 239.19 0.0140599 0.00262815 2 4
95704536.80 150.738 142.864 13.9118 295.969 238.901 -0.0995263 0.00318721 2 5
95704536.83 151.002 142.593 13.9575 296.079 238.704 -0.129858 0.000525166 2 6
95704536.85 151.253 142.334 14.0006 295.79 238.523 -0.153182 -0.000654496 2 7
95704536.87 151.489 142.09 14.0408 295.997 238.64 0.113289 -0.000296679 2 8
95704536.89 151.722 141.85 14.0803 296.12 238.332 -0.0521648 -0.00110908 2 9
95704536.92 151.939 141.626 14.1167 296.01 238.324 0.0736272 -0.00032471 2 10
95704536.94 152.153 141.404 14.1526 295.278 238.044 -0.0799323 -0.000708483 2 11
95704536.96 152.357 141.193 14.1863 288.424 237.866 -0.138135 -0.000472424 2 12
95704536.98 152.553 140.99 14.2187 290.205 237.855 -0.0362427 -0.00116985 2 13
95704537.01 152.743 140.794 14.2497 290.428 237.941 0.15586 -0.000108482 2 14
95704537.03 152.929 140.601 14.28 292.202 237.655 -0.0295763 7.73945e-05 2 15
95704537.05 153.104 140.419 14.3083 293.636 237.628 0.0377063 0.00103277 2 16
95704537.07 153.277 140.24 14.3361 293.508 237.413 -0.0892909 0.000789942 2 17
95704537.10 153.444 140.066 14.3629 293.366 237.546 0.126489 0.000666591 2 18
95704537.12 153.608 139.896 14.3888 293.764 237.375 0.032458 0.00147207 2 19
95704537.14 153.767 139.73 14.4139 294.721 237.446 0.175741 0.000285885 2 20
95704537.16 153.925 139.566 14.4387 292.231 237.249 0.0462999 0.00103886 2 21
95704537.19 154.074 139.411 14.4621 291.562 237.213 0.0734798 0.00268753 2 22
95704537.21 154.221 139.259 14.4848 292.592 237.075 -0.00683243 0.00424811 2 23
95704537.23 154.368 139.105 14.5076 290.532 236.783 -0.244328 0.0049378 2 24
95704537.25 154.511 138.956 14.5295 293.735 237.137 0.159195 0.00523797 2 25
95704537.28 154.651 138.81 14.551 289.981 237.015 0.0836878 0.00332786 2 26
95704537.30 154.789 138.666 14.5719 288.623 236.826 -0.0629631 0.00284232 2 27
95704537.32 154.926 138.523 14.5927 288.379 236.909 0.0588152 0.00291059 2 28
95704537.34 155.058 138.386 14.6125 293.948 236.826 0.0108198 0.00418727 2 29
95704537.37 155.189 138.249 14.6322 296.148 236.744 -0.0392565 0.00408522 2 30
95704537.39 155.319 138.113 14.6515 295.776 236.816 0.0610588 0.00403918 2 31
95704537.41 155.447 137.979 14.6706 295.542 236.786 0.0577605 0.00371036 2 32
95704537.43 155.574 137.847 14.6893 294.595 236.719 0.0127861 0.00408319 2 33
95704537.45 155.699 137.715 14.7077 295.831 236.732 0.0465582 0.00411217 2 34
95704537.48 155.823 137.585 14.7259 291.679 236.514 -0.154119 0.00309847 2 35
95704537.50 155.944 137.459 14.7436 293.693 236.47 -0.182684 0.00140769 2 36
95704537.52 156.068 137.329 14.7616 294.539 236.585 -0.0548527 0.000807801 2 37
95704537.54 156.19 137.202 14.7792 291.577 236.666 0.0355924 0.00074431 2 38
95704537.57 156.31 137.075 14.7965 293.451 236.782 0.160415 0.000687731 2 39
95704537.59 156.43 136.949 14.8137 292.014 236.755 0.13889 -0.000799558 2 40
95704537.61 156.552 136.822 14.8311 291.489 236.559 -0.0532756 0.000636829 2 41
95704537.63 156.669 136.699 14.8477 290.665 236.617 0.00595709 0.000222586 2 42
95704537.66 156.788 136.574 14.8646 291.225 236.5 -0.111258 -0.000407819 2 43
95704537.68 156.906 136.45 14.8813 292.491 236.431 -0.183055 -0.000251714 2 44
95704537.70 157.025 136.325 14.898 295.983 236.402 -0.215839 0.00064991 2 45
95704537.72 157.143 136.2 14.9146 296.052 236.602 -0.0222632 0.000171963 2 46
95704537.75 157.262 136.076 14.9312 295.139 236.733 0.100455 0.000727462 2 47
95704537.77 157.381 135.951 14.9477 295.569 236.498 -0.144276 0.000677302 2 48
95704537.79 157.498 135.827 14.9639 290.472 236.608 -0.0455823 0.000568706 2 49
95704537.81 157.62 135.699 14.9807 295.278 236.609 -0.0587073 0.000786968 2 50
95704537.84 157.74 135.573 14.9972 296.844 236.56 -0.123019 0.000467574 2 51
95704537.86 157.86 135.445 15.0138 293.48 236.664 -0.0362912 -0.000435233 2 52
95704537.88 157.982 135.317 15.0304 294.258 236.814 0.0947289 -0.00055582 2 53
95704537.90 158.106 135.186 15.0474 296.98 236.756 0.0157396 -0.00114324 2 54
95704537.93 158.228 135.058 15.0638 295.153 236.796 0.0329292 -0.00118764 2 55
95704537.95 158.354 134.924 15.0809 295.873 236.866 0.0783736 -0.00124526 2 56
95704537.97 158.478 134.794 15.0976 294.735 236.892 0.0769563 -0.000346242 2 57
95704537.99 158.605 134.659 15.1147 291.005 236.886 0.0419256 -0.00137009 2 58
95704538.02 158.734 134.523 15.1319 290.056 236.997 0.121884 -0.00114 2 59
95704538.04 158.866 134.384 15.1496 292.275 236.99 0.0809503 -0.00188143 2 60
95704538.06 158.996 134.246 15.1668 289.966 236.817 -0.127076 -0.00155886 2 61
95704538.08 159.13 134.104 15.1846 289.681 237.236 0.253939 -0.000689367 2 62
95704538.10 159.266 133.96 15.2025 291.635 237.231 0.208326 -0.000202872 2 63
95704538.13 159.402 133.816 15.2204 291.46 237.079 0.012651 -0.000984218 2 64
95704538.15 159.545 133.664 15.2392 291.533 237.15 0.0386978 -0.00122419 2 65
95704538.17 159.689 133.512 15.258 295.707 237.231 0.0708436 0.000547612 2 66
95704538.19 159.835 133.357 15.277 295.597 237.243 0.0316337 0.000332825 2 67
95704538.22 159.985 133.198 15.2964 296.694 237.323 0.0573147 0.00103013 2 68
95704538.24 160.14 133.033 15.3165 296.462 237.396 0.0723958 0.00158629 2 69
95704538.26 160.295 132.869 15.3363 295.181 237.37 -0.0147719 0.00200953 2 70
